wavelength spec_sum spec_optimal
3526.2 0.274537 51.7397
3529.11 -0.345828 45.7839
3532.03 -1.36062 65.029
3534.94 5.71317 59.4428
3537.85 -0.257163 69.3522
3540.76 1.45006 47.2729
3543.68 -10.8883 53.3569
3546.59 -0.319121 59.6983
3549.5 8.78951 55.6539
3552.41 3.73418 35.2867
3555.33 -0.979648 59.8806
3558.24 6.27571 72.548
3561.15 7.86168 69.3375
3564.06 -0.0149528 59.4212
3566.97 2.92144 67.7458
3569.89 0.911976 67.7317
3572.8 2.43798 72.0603
3575.71 -2.08923 57.0612
3578.62 0.311536 75.6938
3581.54 0.422921 72.5987
3584.45 -6.34763 68.4163
3587.36 8.12568 60.7419
3590.27 5.48395 76.8384
3593.19 0.944728 66.3886
3596.1 -2.14737 60.5635
3599.01 4.20682 63.4849
3601.92 9.51444 68.7019
3604.83 7.55694 59.5065
3607.75 9.2222 62.6349
3610.66 -3.0567 66.5292
3613.57 9.09729 65.2089
3616.48 2.80034 72.7287
3619.4 7.92261 51.2419
3622.31 9.30269 65.8764
3625.22 11.2852 66.8761
3628.13 3.1494 65.0939
3631.05 12.7902 61.4339
3633.96 11.4711 72.4367
3636.87 7.282 76.6514
3639.78 12.4561 70.9894
3642.69 16.0581 67.0794
3645.61 14.2796 73.8278
3648.52 10.3216 74.184
3651.43 9.65036 84.7801
3654.34 12.9319 57.5227
3657.26 15.2185 58.6396
3660.17 20.6527 69.725
3663.08 10.2964 59.5946
3665.99 15.442 75.0411
3668.9 15.8814 65.2451
3671.82 12.1429 62.9081
3674.73 5.58772 69.1163
3677.64 9.45168 61.2558
3680.55 13.9166 74.5988
3683.47 16.015 85.034
3686.38 18.7574 70.5154
3689.29 10.5398 65.6341
3692.2 20.8037 63.6669
3695.11 22.3101 58.0302
3698.03 16.2692 67.4831
3700.94 11.2083 71.2294
3703.85 14.4247 72.013
3706.76 18.534 66.2627
3709.67 14.8377 84.7054
3712.59 17.8273 65.828
3715.5 15.4281 69.388
3718.41 20.2612 68.9109
3721.32 17.4255 65.1117
3724.24 22.0786 65.4122
3727.15 19.3854 66.2482
3730.06 20.7732 70.8906
3732.97 15.2915 72.8746
3735.88 23.5559 63.6147
3738.8 24.2807 73.9926
3741.71 14.0392 72.4516
3744.62 15.4122 63.6353
3747.53 17.9763 84.1662
3750.44 16.6321 66.376
3753.36 13.1179 84.367
3756.27 19.9669 64.8546
3759.18 18.7433 85.0155
3762.09 19.45 63.843
3765 16.303 70.5495
3767.92 14.752 74.5701
3770.83 15.198 82.8028
3773.74 21.8861 81.2564
3776.65 17.6968 76.1228
3779.56 14.2924 67.3722
3782.47 25.9974 76.8695
3785.39 24.5304 85.3694
3788.3 23.9383 77.271
3791.21 30.5004 83.8975
3794.12 32.8823 86.5387
3797.03 28.8315 90.2313
3799.95 23.5975 88.2309
3802.86 28.8271 81.9732
3805.77 30.8771 79.6763
3808.68 32.8236 94.1067
3811.59 33.8556 89.9329
3814.5 28.6165 101.366
3817.42 38.6581 92.5087
3820.33 25.3054 78.2116
3823.24 30.0616 77.2289
3826.15 34.8162 88.3134
3829.06 34.9195 87.7715
3831.97 33.5506 78.3128
3834.89 29.4652 82.4756
3837.8 28.0298 74.5563
3840.71 28.6679 90.7583
3843.62 29.5953 80.2644
3846.53 23.0488 86.0111
3849.44 21.7049 72.5959
3852.36 18.6928 77.5184
3855.27 20.1655 75.955
3858.18 8.92641 74.8218
3861.09 19.5695 88.5497
3864 18.5226 96.399
3866.91 16.4924 131.754
3869.82 7.83331 161.6
3872.74 -4.3173 164.814
3875.65 -1.33525 149.467
3878.56 5.25526 139.229
3881.47 6.73253 104.942
3884.38 14.2529 104.68
3887.29 9.13876 87.4891
3890.2 13.2596 85.9635
3893.12 10.2986 72.3616
3896.03 13.9148 68.1913
3898.94 16.7597 73.8768
3901.85 8.35064 69.5196
3904.76 7.98899 74.2794
3907.67 11.1993 77.989
3910.58 5.11972 83.2826
3913.49 11.3434 64.9823
3916.41 15.572 62.752
3919.32 12.2482 65.2026
3922.23 14.4244 79.0297
3925.14 8.95224 83.3808
3928.05 4.31176 84.8597
3930.96 11.1809 70.2758
3933.87 6.2092 78.8469
3936.78 7.39521 73.2948
3939.7 9.79245 75.7629
3942.61 9.30144 70.8155
3945.52 9.01548 69.5441
3948.43 8.26304 68.9392
3951.34 11.8971 72.4483
3954.25 9.8313 82.9177
3957.16 7.26062 73.5122
3960.07 7.76853 85.1807
3962.98 10.6677 82.9703
3965.89 7.72679 85.8602
3968.8 12.5324 78.5999
3971.72 14.1747 79.7324
3974.63 13.4632 77.117
3977.54 17.8308 73.9823
3980.45 15.4804 75.1691
3983.36 20.7841 68.4224
3986.27 18.2501 70.0491
3989.18 20.5429 76.6979
3992.09 18.64 81.1951
3995 24.6009 94.5487
3997.91 25.9175 91.3839
4000.82 28.2614 89.4793
4003.73 25.6214 96.4602
4006.64 22.844 91.1385
4009.56 28.5877 104.503
4012.47 30.8762 104.467
4015.38 28.5063 101.552
4018.29 33.9735 111.093
4021.2 27.9599 108.981
4024.11 26.9481 109.511
4027.02 31.8915 104.374
4029.93 31.1183 103.592
4032.84 36.9215 100.874
4035.75 38.874 91.72
4038.66 29.6158 98.8914
4041.57 38.1933 97.1337
4044.48 40.7428 93.4366
4047.39 47.2803 97.5358
4050.3 35.9734 104.621
4053.21 44.7007 111.168
4056.12 45.3313 100.4
4059.03 45.343 110.973
4061.94 41.6113 115.222
4064.85 47.7016 110.603
4067.76 47.8325 119.673
4070.67 38.1916 108.944
4073.58 50.5828 111.733
4076.49 42.7326 114.398
4079.4 46.7778 110.87
4082.31 51.0646 104.136
4085.22 51.1162 103.945
4088.13 47.0381 104.863
4091.04 49.6826 107.417
4093.95 51.027 107.238
4096.86 50.2412 109.044
4099.77 54.699 115.702
4102.68 47.4221 117.887
4105.59 41.8002 117.542
4108.5 52.4598 112.378
4111.41 42.9275 107.89
4114.32 44.062 108.521
4117.23 47.1513 97.3399
4120.14 45.5497 91.996
4123.05 41.0576 93.0533
4125.96 37.1126 89.5975
4128.87 42.5159 99.3518
4131.78 38.2163 92.785
4134.69 42.2661 102.392
4137.6 39.9781 98.5971
4140.51 33.5067 115.165
4143.42 34.3952 109.096
4146.33 35.0244 107.84
4149.24 32.7426 119.814
4152.14 32.6393 108.986
4155.05 31.158 114.426
4157.96 23.1372 113.004
4160.87 25.2129 104.423
4163.78 30.1973 117.624
4166.69 24.9645 115.784
4169.6 30.7237 118.756
4172.51 26.8185 121.447
4175.42 26.93 110.817
4178.33 25.3264 113.293
4181.24 24.5297 113.591
4184.15 25.7189 116.604
4187.05 29.8824 105.718
4189.96 28.6918 121.816
4192.87 29.8974 124.655
4195.78 29.8182 108.165
4198.69 29.2604 108.468
4201.6 32.1364 100.311
4204.51 26.0544 112.743
4207.42 22.2549 117.064
4210.33 29.5219 110.966
4213.23 24.8997 114.951
4216.14 28.6274 111.525
4219.05 31.0052 112.727
4221.96 29.7999 116.995
4224.87 30.5079 112.785
4227.78 32.8417 113.978
4230.69 30.364 106.032
4233.6 28.6076 117.707
4236.5 31.0395 108.204
4239.41 33.5622 105.448
4242.32 31.8327 112.557
4245.23 25.1847 112.079
4248.14 23.4148 92.8672
4251.05 26.1077 103.987
4253.95 29.5631 93.7576
4256.86 32.3363 97.6641
4259.77 28.6255 96.9963
4262.68 29.6245 91.2088
4265.59 29.5167 83.8785
4268.49 30.0409 94.9628
4271.4 31.5993 96.4481
4274.31 29.8915 100.656
4277.22 36.1374 101.353
4280.13 27.0437 102.233
4283.03 31.3148 103.331
4285.94 26.4156 109.442
4288.85 28.0533 107.198
4291.76 30.9759 104.568
4294.67 28.6055 110.868
4297.57 36.0984 108.863
4300.48 30.1956 107.278
4303.39 34.4393 111.964
4306.3 34.1153 114.844
4309.2 36.1649 107.208
4312.11 37.2264 112.73
4315.02 37.8329 103.422
4317.93 36.3979 112.944
4320.83 34.995 109.949
4323.74 38.4978 117.468
4326.65 36.2172 109.134
4329.56 33.1127 116.808
4332.46 35.073 117.596
4335.37 38.2681 113.827
4338.28 37.3236 115.551
4341.19 39.512 109.852
4344.09 41.1436 114.333
4347 33.5063 115.91
4349.91 41.1021 112.527
4352.81 39.9787 115.54
4355.72 38.7714 111.455
4358.63 38.1211 114.003
4361.54 28.1482 110.584
4364.44 30.079 112.28
4367.35 35.9839 111.002
4370.26 31.0229 109.856
4373.16 30.6295 114.64
4376.07 43.4822 118.923
4378.98 36.2044 111.951
4381.88 35.6476 118.81
4384.79 35.7415 111.877
4387.7 35.0884 113.842
4390.6 33.637 111.13
4393.51 34.0769 116.874
4396.42 34.5549 113.334
4399.32 35.0016 109.168
4402.23 33.7778 113.173
4405.14 30.5981 115.085
4408.04 33.246 109.582
4410.95 33.1461 106.935
4413.85 32.5559 111.947
4416.76 34.6286 112.994
4419.67 27.2766 112.165
4422.57 30.748 111.282
4425.48 22.9163 114.968
4428.39 30.1376 112.374
4431.29 23.9913 111.581
4434.2 33.2065 112.775
4437.1 31.6002 110.75
4440.01 31.0613 110.827
4442.92 30.2989 107.702
4445.82 24.2323 108.058
4448.73 37.4212 110.077
4451.63 29.9504 113.626
4454.54 35.1765 106.597
4457.44 32.6307 111.898
4460.35 28.4225 108.089
4463.25 28.4075 104.785
4466.16 26.9387 105.277
4469.07 22.351 99.0561
4471.97 29.2753 105.598
4474.88 29.2668 98.5782
4477.78 26.845 102.97
4480.69 27.1813 98.4805
4483.59 27.2061 109.791
4486.5 22.8721 105.69
4489.4 27.6347 103.263
4492.31 24.8208 99.9672
4495.21 15.9292 97.152
4498.12 25.8728 98.836
4501.02 24.24 96.9242
4503.93 14.8359 102.107
4506.83 18.5761 95.969
4509.74 20.2217 96.5572
4512.64 13.3536 108.032
4515.55 17.9274 98.2657
4518.45 19.8968 98.718
4521.36 19.7641 94.9389
4524.26 16.8643 93.171
4527.17 17.5175 92.2075
4530.07 17.7361 97.786
4532.97 16.1763 94.1874
4535.88 16.183 94.6811
4538.78 13.4875 103.345
4541.69 11.5755 100.71
4544.59 13.6238 96.631
4547.5 14.6712 97.1459
4550.4 13.4972 99.3371
4553.3 13.9811 98.2537
4556.21 12.4665 95.944
4559.11 13.5094 93.8153
4562.02 10.5677 93.9622
4564.92 17.4253 95.7056
4567.82 11.2434 91.4999
4570.73 16.9066 95.4347
4573.63 15.2237 97.4822
4576.54 4.9049 95.8272
4579.44 11.5289 93.4888
4582.34 15.3235 93.3225
4585.25 13.7111 102.796
4588.15 12.9865 97.9559
4591.05 10.312 95.8277
4593.96 9.84819 100.593
4596.86 15.2443 98.6073
4599.76 14.4534 97.8636
4602.67 16.3073 104.447
4605.57 14.4525 106.082
4608.47 16.8131 102.009
4611.38 21.4253 102.308
4614.28 15.7403 101.555
4617.18 18.6571 106.655
4620.09 18.2503 100
4622.99 13.5614 100.771
4625.89 19.2427 110.19
4628.8 19.1815 107.151
4631.7 16.4082 111.022
4634.6 17.4161 104.798
4637.5 21.9738 103.439
4640.41 16.2877 97.1234
4643.31 22.7755 102.433
4646.21 24.9275 97.4193
4649.11 26.9234 114.062
4652.02 28.0088 111.221
4654.92 25.1758 107.536
4657.82 25.4876 111.662
4660.72 24.0274 116.713
4663.63 26.8078 121.487
4666.53 30.4965 118.297
4669.43 28.4537 121.793
4672.33 29.2116 110.519
4675.23 30.8047 126.031
4678.14 35.5304 117.293
4681.04 32.0168 123.609
4683.94 36.5082 127.534
4686.84 33.7657 125.068
4689.74 39.2795 124.225
4692.65 42.181 125.919
4695.55 34.7017 126.657
4698.45 39.9333 121.74
4701.35 43.4544 131.383
4704.25 43.886 132.331
4707.15 38.3689 118.463
4710.05 42.7549 127.786
4712.96 49.3265 131.329
4715.86 48.1359 131.166
4718.76 42.0859 133.789
4721.66 49.5595 128.953
4724.56 53.018 136.358
4727.46 41.8096 130.245
4730.36 51.6867 128.006
4733.26 50.1112 132.93
4736.16 52.896 137.455
4739.07 50.6177 134.962
4741.97 46.3862 131.513
4744.87 48.4708 131.544
4747.77 53.1991 134.446
4750.67 53.2129 135.081
4753.57 54.3851 130.037
4756.47 53.3962 133.383
4759.37 45.9756 138.694
4762.27 45.9355 128.393
4765.17 51.9878 128.908
4768.07 53.5176 130.346
4770.97 52.5737 126.719
4773.87 43.7168 125.517
4776.77 53.7141 134.353
4779.67 56.4584 127.189
4782.57 55.129 132.19
4785.47 54.717 127.987
4788.37 48.081 125.01
4791.27 49.2096 129.896
4794.17 52.4754 132.279
4797.07 44.9199 124.687
4799.97 48.5744 121.64
4802.87 43.3695 126.686
4805.77 44.6645 127.314
4808.67 43.0584 119.529
4811.57 47.8903 122.854
4814.47 43.9837 126.276
4817.37 40.8487 125.741
4820.27 42.608 116.854
4823.16 41.6237 132.624
4826.06 29.6302 122.568
4828.96 30.3927 121.973
4831.86 37.5617 121.065
4834.76 37.3444 122.007
4837.66 33.2575 120.204
4840.56 30.6723 116.952
4843.46 34.504 131.014
4846.36 33.4777 124.975
4849.25 23.4636 124.084
4852.15 30.6814 120.242
4855.05 33.0187 123.44
4857.95 22.4083 116.977
4860.85 28.9645 120.29
4863.75 29.1911 119.943
4866.64 27.5716 120.511
4869.54 29.6925 124.983
4872.44 27.1545 121.946
4875.34 26.1525 128.778
4878.24 21.3727 122.299
4881.13 23.7076 118.053
4884.03 19.0358 124.192
4886.93 24.4622 123.271
4889.83 28.1601 112.173
4892.73 28.7708 124.979
4895.62 24.6951 127.512
4898.52 21.2685 117.698
4901.42 14.9868 121.987
4904.32 14.1541 124.171
4907.21 14.4587 119.098
4910.11 19.9594 120.476
4913.01 9.5301 117.435
4915.9 12.9732 115.582
4918.8 11.1713 115.246
4921.7 17.7002 126.708
4924.6 16.2652 114.378
4927.49 16.3637 109.164
4930.39 15.5208 111.098
4933.29 12.5373 117.405
4936.18 8.59117 115.682
4939.08 16.0066 116.523
4941.98 15.8403 111.419
4944.87 15.8677 116.342
4947.77 20.7296 110.397
4950.66 16.6817 105.333
4953.56 16.9175 118.244
4956.46 14.3302 113.517
4959.35 17.3034 120.33
4962.25 17.8876 113.736
4965.15 15.8343 118.096
4968.04 18.1148 113.659
4970.94 21.2942 108.309
4973.83 19.5308 114.224
4976.73 17.8658 117.492
4979.62 16.4136 115.046
4982.52 16.1798 110.566
4985.42 12.8016 118.814
4988.31 11.9389 108.492
4991.21 16.7713 109.043
4994.1 15.7975 112.236
4997 18.3628 110.511
4999.89 14.5875 114.514
5002.79 14.7929 107.952
5005.68 13.3274 111.527
5008.58 18.2551 109.283
5011.47 16.2024 106.995
5014.37 17.7661 108.194
5017.26 17.8845 109.438
5020.16 15.466 111.578
5023.05 14.4918 101.456
5025.95 16.361 112.073
5028.84 14.727 112.623
5031.73 15.5512 110.546
5034.63 14.0604 108.98
5037.52 18.167 104.576
5040.42 10.6341 101.587
5043.31 14.9969 107.415
5046.21 14.5895 115.382
5049.1 10.8025 130.057
5051.99 16.3874 136.061
5054.89 13.8196 130.343
5057.78 20.2612 122.656
5060.67 15.0894 108.589
5063.57 19.1016 112.256
5066.46 18.8713 116.581
5069.36 16.1765 110.405
5072.25 23.658 108.167
5075.14 22.4988 102.39
5078.04 18.8344 108.297
5080.93 22.6945 105.596
5083.82 24.2366 112.634
5086.72 25.0998 106.295
5089.61 22.8169 103.337
5092.5 26.6791 110.258
5095.39 26.9678 111.481
5098.29 27.473 110.127
5101.18 30.3343 114.909
5104.07 24.0402 116.807
5106.96 28.8888 105.941
5109.86 31.8736 109.879
5112.75 26.0449 108.182
5115.64 30.8067 113.972
5118.53 30.3248 117.56
5121.43 31.9266 111.36
5124.32 29.0696 120.007
5127.21 25.8753 113.109
5130.1 31.4775 114.283
5132.99 30.7216 113.125
5135.89 23.5096 108.386
5138.78 25.7276 122.504
5141.67 30.4362 115.557
5144.56 20.6173 114.763
5147.45 25.1798 117.448
5150.34 21.6722 118.58
5153.23 22.7874 122.761
5156.13 21.9592 121.953
5159.02 20.6396 113.165
5161.91 22.9359 109.059
5164.8 16.6895 110.717
5167.69 19.6775 120.842
5170.58 17.3361 99.9458
5173.47 14.143 102.363
5176.36 19.8409 107.953
5179.25 19.28 103.723
5182.14 20.5279 103.948
5185.03 14.1705 107.951
5187.92 18.3483 103.694
5190.82 19.4453 109.714
5193.71 20.1895 107.368
5196.6 18.1561 125.252
5199.49 14.5525 122.665
5202.38 11.7753 131.782
5205.27 10.8199 134.952
5208.16 12.2781 126.472
5211.05 18.8679 119.687
5213.94 15.7243 107.644
5216.82 17.9633 122.812
5219.71 17.3807 107.099
5222.6 13.6376 105.336
5225.49 12.232 109.083
5228.38 18.313 99.7587
5231.27 19.8421 102.784
5234.16 19.807 114.051
5237.05 19.8215 94.4414
5239.94 19.8042 103.381
5242.83 19.7193 107.129
5245.72 16.0981 106.859
5248.61 20.7713 103.273
5251.49 21.9647 106.451
5254.38 24.0359 104.06
5257.27 22.1475 110.489
5260.16 14.0341 101.994
5263.05 22.6276 107.439
5265.94 23.6939 105.746
5268.82 16.5408 101.886
5271.71 16.756 110.432
5274.6 16.5868 105.359
5277.49 24.0517 103.699
5280.38 21.1575 100.186
5283.26 23.0503 108.785
5286.15 23.2458 106.642
5289.04 22.0977 105.714
5291.93 26.0982 109.672
5294.81 24.6459 113.628
5297.7 22.2013 105.597
5300.59 22.9301 103.235
5303.48 19.5034 105.11
5306.36 24.9505 110.704
5309.25 17.0815 104.141
5312.14 24.8901 106.435
5315.02 22.8893 109.211
5317.91 18.8775 110.661
5320.8 27.1987 105.902
5323.68 23.5438 105.881
5326.57 24.4182 110.139
5329.46 25.6397 109.379
5332.34 26.8701 112.559
5335.23 28.4407 109.23
5338.11 26.8101 97.9278
5341 30.0691 113.323
5343.89 27.1298 105.835
5346.77 26.2643 116.909
5349.66 24.7152 115.157
5352.54 31.0955 109.09
5355.43 30.0343 112.254
5358.32 33.9064 107.05
5361.2 26.9427 112.995
5364.09 33.1478 107.129
5366.97 35.5066 111.02
5369.86 37.3111 108.349
5372.74 37.2721 103.528
5375.63 35.879 110.628
5378.51 36.8709 112.162
5381.4 36.5599 113.457
5384.28 36.9362 108.902
5387.17 37.1375 106.756
5390.05 40.7161 113.172
5392.94 39.4322 118.21
5395.82 35.8248 113.02
5398.7 40.5014 117.461
5401.59 37.1771 113.16
5404.47 39.4762 116.98
5407.36 32.4933 117.334
5410.24 39.76 114.667
5413.12 37.9006 118.565
5416.01 37.1903 116.379
5418.89 39.2234 115.04
5421.78 36.1497 119.518
5424.66 35.9569 126.127
5427.54 33.5736 117.18
5430.43 40.0755 119.518
5433.31 39.6179 119.685
5436.19 40.5224 110.582
5439.07 43.5986 118.655
5441.96 36.7128 115.603
5444.84 39.8405 112.573
5447.72 42.4985 119.147
5450.61 42.0379 119.851
5453.49 40.5045 117.271
5456.37 39.4171 113.372
5459.25 38.7691 112.752
5462.14 38.4694 119.977
5465.02 41.1315 116.718
5467.9 38.3868 114.442
5470.78 40.995 119.102
5473.66 39.5272 106.361
5476.55 37.9914 110.174
5479.43 37.3988 116.394
5482.31 38.3774 117.21
5485.19 36.7087 117.201
5488.07 34.0336 107.546
5490.95 35.5545 111.453
5493.84 25.4555 107.52
5496.72 28.5928 114.689
5499.6 30.5462 112.49
5502.48 30.9162 109.842
5505.36 32.2842 108.85
5508.24 28.9752 113.503
5511.12 27.4736 104.808
5514 19.2592 115.151
5516.88 31.0586 108.962
5519.76 27.4971 110.723
5522.64 23.2235 112.434
5525.52 28.4773 111.193
5528.4 28.0996 107.031
5531.28 27.1733 102.168
5534.16 31.8711 102.624
5537.04 21.0197 109.526
5539.92 22.8813 105.792
5542.8 25.9128 105.922
5545.68 28.2833 102.034
5548.56 28.0076 110.309
5551.44 27.5991 101.808
5554.32 23.0812 106.551
5557.2 30.9737 114.104
5560.08 28.1016 106.306
5562.96 28.3174 114.47
5565.84 18.8374 120.863
5568.72 31.0136 122.76
5571.59 28.6719 111.237
5574.47 30.6908 111.237
5577.35 26.0197 102.826
5580.23 -7.90129 94.5186
5583.11 27.7967 112.67
5585.99 12.8363 113.124
5588.87 27.88 113.486
5591.74 28.6708 105.046
5594.62 27.9608 106.295
5597.5 28.5534 101.818
5600.38 27.7442 106.346
5603.25 29.8477 102.144
5606.13 21.2877 105.616
5609.01 29.8226 105.563
5611.89 23.5019 105.718
5614.76 31.3797 102.397
5617.64 26.8726 111.145
5620.52 30.3468 109.063
5623.4 27.9407 103.36
5626.27 21.7457 101.513
5629.15 26.9799 107.512
5632.03 28.2791 110.44
5634.9 27.6899 112.153
5637.78 19.4178 114.223
5640.65 20.4611 106.056
5643.53 30.2456 109.279
5646.41 25.8859 103.616
5649.28 24.4408 102.883
5652.16 22.977 108.139
5655.03 24.9776 107.223
5657.91 20.5171 102.742
5660.79 17.6259 96.7421
5663.66 24.5208 104.582
5666.54 22.9249 105.729
5669.41 16.6564 101.533
5672.29 23.2749 105.136
5675.16 20.8766 105.991
5678.04 16.0451 104.034
5680.91 15.0866 99.4328
5683.79 21.1521 104.75
5686.66 21.6862 98.0125
5689.54 20.7942 105.149
5692.41 19.8902 95.8573
5695.29 12.4813 98.8836
5698.16 19.9927 95.7591
5701.03 12.9199 98.4521
5703.91 17.6709 103.198
5706.78 19.7807 98.3506
5709.66 16.4172 97.0158
5712.53 12.1519 99.9173
5715.4 19.6878 93.1972
5718.28 18.4553 96.7967
5721.15 19.4417 91.7051
5724.02 17.1525 96.4036
5726.9 11.749 99.252
5729.77 18.6726 98.562
5732.64 19.9536 102.51
5735.52 18.4635 99.0354
5738.39 12.9603 95.1709
5741.26 20.386 103.992
5744.13 13.0361 102.65
5747.01 23.3357 95.1733
5749.88 17.4787 97.4822
5752.75 15.9799 107.615
5755.62 23.4088 96.3934
5758.5 26.0582 104.626
5761.37 22.2515 105.9
5764.24 15.8642 101.315
5767.11 23.7209 107.071
5769.98 22.5905 104.536
5772.86 23.9922 106.455
5775.73 21.7092 105.305
5778.6 22.7143 106.099
5781.47 23.4416 111.239
5784.34 26.9419 105.409
5787.21 27.5439 114.002
5790.08 25.8345 105.494
5792.95 15.3149 103.54
5795.82 25.5083 113.725
5798.69 26.5549 108.877
5801.56 22.1179 107.337
5804.44 25.2907 103.507
5807.31 24.11 104.027
5810.18 23.4131 101.839
5813.05 19.9934 110.604
5815.92 21.3062 107.255
5818.79 21.1184 108.548
5821.65 25.335 107.128
5824.52 23.5934 104.038
5827.39 23.4225 110.351
5830.26 17.5686 111.517
5833.13 23.8612 107.478
5836 20.3703 114.542
5838.87 24.3395 107.209
5841.74 22.3502 107.953
5844.61 23.8875 105.749
5847.48 14.3528 108.619
5850.35 24.6384 110.649
5853.21 22.2949 115.795
5856.08 23.0738 111.183
5858.95 17.8422 117.2
5861.82 23.3 112.295
5864.69 14.4879 108.209
5867.55 22.2971 108.755
5870.42 20.7596 104.342
5873.29 23.595 108.602
5876.16 24.8058 108.397
5879.03 21.2603 118.675
5881.89 10.1958 110.246
5884.76 21.1356 103.729
5887.63 21.2671 101.529
5890.49 22.2022 105.193
5893.36 21.8451 106.081
5896.23 23.1407 108.065
5899.09 22.8294 100.544
5901.96 19.354 106.249
5904.83 18.465 108.732
5907.69 18.6833 106.662
5910.56 19.8842 91.1635
5913.43 18.6487 98.0164
5916.29 20.4575 100.732
5919.16 14.9099 91.3299
5922.02 19.2943 102.073
5924.89 17.0311 103.745
5927.75 17.235 111.118
5930.62 8.23745 103.881
5933.49 13.8911 109.974
5936.35 19.2071 105.764
5939.22 18.2021 102.367
5942.08 17.9837 108.629
5944.95 15.5042 105.881
5947.81 16.9582 104.548
5950.67 18.0822 100.922
5953.54 9.754 106.656
5956.4 12.1477 107.922
5959.27 14.9535 101.352
5962.13 16.3706 103.018
5965 15.702 106.57
5967.86 16.2047 103.966
5970.72 16.9882 101.007
5973.59 8.68159 107.46
5976.45 14.3739 100.838
5979.31 12.0723 101.12
5982.18 16.3948 97.3249
5985.04 15.8954 100.086
5987.9 6.59263 100.836
5990.77 13.8358 105.731
5993.63 10.1583 106.141
5996.49 13.825 104.303
5999.36 9.31685 101.592
6002.22 14.744 98.7353
6005.08 15.5391 97.597
6007.94 12.4963 104.819
6010.8 10.1434 96.1394
6013.67 16.3616 97.7733
6016.53 10.4273 103.032
6019.39 12.4549 99.8832
6022.25 15.5201 98.6942
6025.11 17.541 105.375
6027.97 19.1138 103.451
6030.84 17.988 103.071
6033.7 21.2579 104.633
6036.56 19.0957 101.715
6039.42 20.7895 107.199
6042.28 10.9635 105.928
6045.14 22.2398 99.369
6048 17.0301 108.46
6050.86 20.3637 108.64
6053.72 14.9002 102.714
6056.58 19.2677 106.153
6059.44 20.9268 106.754
6062.3 22.4415 108.212
6065.16 24.2355 109.195
6068.02 19.494 103.433
6070.88 22.5871 104.518
6073.74 21.8486 107.137
6076.6 18.9361 106.702
6079.46 23.1426 106.906
6082.32 20.5085 105.643
6085.18 22.4659 106.652
6088.04 25.2732 104.639
6090.89 22.3074 105.206
6093.75 25.2355 103.811
6096.61 26.656 110.444
6099.47 25.9194 107.71
6102.33 22.1571 113.338
6105.19 22.7043 112.327
6108.04 22.746 107.135
6110.9 25.3582 108.981
6113.76 17.1767 109.97
6116.62 21.3668 105.11
6119.47 22.9389 94.9534
6122.33 23.9919 97.6168
6125.19 26.1071 109.195
6128.05 18.3364 101.948
6130.9 18.4858 100.543
6133.76 24.2482 103.582
6136.62 15.1271 103.854
6139.47 24.1362 96.8961
6142.33 20.5549 108.579
6145.19 22.2956 102.265
6148.04 19.4046 104.723
6150.9 21.4935 107.58
6153.75 20.2834 107.108
6156.61 20.4031 103.073
6159.46 18.258 103.342
6162.32 14.1131 101.682
6165.18 19.6881 106.433
6168.03 20.9174 101.009
6170.89 19.8704 103.869
6173.74 18.1675 98.726
6176.6 21.8801 100.559
6179.45 20.2161 103.184
6182.31 19.767 100.95
6185.16 21.834 105.057
6188.01 21.6918 105.595
6190.87 19.4955 109.568
6193.72 19.3822 101.117
6196.58 18.925 101.239
6199.43 22.6686 103.961
6202.28 23.376 103.744
6205.14 23.0074 96.9887
6207.99 21.6211 102.704
6210.84 17.3273 96.2907
6213.7 21.0878 98.5598
6216.55 14.981 94.9629
6219.4 18.959 107.324
6222.26 21.6809 91.6463
6225.11 19.8993 100.501
6227.96 22.6397 100.62
6230.81 18.69 103.459
6233.67 18.7278 103.58
6236.52 17.3396 97.3395
6239.37 21.3305 98.5577
6242.22 23.1573 97.6776
6245.07 13.6748 96.2312
6247.93 11.7259 95.0457
6250.78 20.7647 95.9528
6253.63 20.8832 99.3649
6256.48 14.1704 91.2544
6259.33 16.2137 105.197
6262.18 21.3082 93.1112
6265.03 19.9073 97.336
6267.88 21.3547 96.8947
6270.73 18.8915 100.053
6273.59 21.5883 100.028
6276.44 13.5513 96.0066
6279.29 17.1272 98.0981
6282.14 18.8297 92.8527
6284.99 8.90289 99.4925
6287.84 19.7008 93.3062
6290.69 17.2925 106.179
6293.53 22.6453 109.376
6296.38 16.096 96.298
6299.23 17.3367 86.2247
6302.08 15.1492 86.7739
6304.93 14.7521 90.6869
6307.78 14.6858 98.8747
6310.63 16.5003 84.5314
6313.48 10.9879 83.7601
6316.33 12.7953 91.8385
6319.17 10.7132 79.7064
6322.02 4.71832 92.4871
6324.87 10.3531 84.5016
6327.72 7.86417 83.5275
6330.57 6.04444 83.6235
6333.41 7.9883 89.4022
6336.26 10.73 87.6067
6339.11 4.15319 82.1334
6341.96 2.27567 82.0579
6344.8 5.39957 82.5717
6347.65 6.28916 88.3528
6350.5 5.36992 85.6311
6353.34 5.76478 81.4854
6356.19 -1.51485 83.1046
6359.04 -5.41408 91.8665
6361.88 5.35668 81.6604
6364.73 3.12453 79.6468
6367.57 -6.76382 85.3764
6370.42 4.8302 81.3956
6373.27 4.53651 82.2318
6376.11 2.09506 76.5511
6378.96 1.09304 81.0894
6381.8 -1.6412 82.9298
6384.65 2.2566 80.0941
6387.49 3.25721 82.3319
6390.34 4.15697 84.4051
6393.18 3.67441 78.2739
6396.03 3.69366 79.9649
6398.87 5.26011 85.255
6401.71 3.45732 77.3169
6404.56 -0.961851 82.6148
6407.4 5.25316 77.0661
6410.25 4.86149 85.3057
6413.09 3.6851 76.1481
6415.93 4.96561 79.0172
6418.78 6.67368 82.2213
6421.62 -0.472285 77.5022
6424.46 4.55333 83.7358
6427.31 6.04754 83.6349
6430.15 1.87138 74.2662
6432.99 3.98049 76.6736
6435.83 6.73113 80.6887
6438.68 8.27036 85.2662
6441.52 10.1245 81.0155
6444.36 3.1794 87.59
6447.2 7.33997 84.6763
6450.05 9.02885 81.3166
6452.89 9.42716 83.3391
6455.73 10.2681 83.8219
6458.57 9.02775 80.1932
6461.41 9.9695 89.9795
6464.25 2.53888 82.8585
6467.09 3.36706 87.3982
6469.93 8.17212 86.0475
6472.78 10.8704 87.372
6475.62 11.5547 89.6011
6478.46 11.9701 82.8024
6481.3 11.5494 85.5689
6484.14 12.7179 89.6552
6486.98 13.8492 82.4382
6489.82 9.20434 88.5096
6492.66 15.1901 88.3889
6495.5 7.86018 85.0083
6498.34 11.862 90.3175
6501.17 15.9296 92.7082
6504.01 13.7002 88.8843
6506.85 19.3021 94.3968
6509.69 11.5896 89.2243
6512.53 16.3378 91.2518
6515.37 16.4911 90.9607
6518.21 9.82384 88.6921
6521.05 16.795 89.1677
6523.88 17.0981 87.7703
6526.72 13.5389 93.1186
6529.56 17.9299 94.3832
6532.4 17.8126 91.7512
6535.23 18.0729 91.7976
6538.07 17.3137 93.1837
6540.91 19.6345 98.9891
6543.75 18.28 98.5494
6546.58 17.1553 97.1378
6549.42 16.5348 99.1383
6552.26 18.9942 96.068
6555.09 9.57182 97.3504
6557.93 10.2279 97.696
6560.77 16.3883 86.7669
6563.6 18.4017 98.3505
6566.44 18.0194 87.2603
6569.27 12.4084 93.1291
6572.11 17.9367 92.3689
6574.94 20.8896 92.9771
6577.78 19.7649 91.8691
6580.61 18.414 95.6932
6583.45 16.5439 95.4342
6586.28 18.8224 93.569
6589.12 18.0763 85.9084
6591.95 20.2625 98.6276
6594.79 16.0972 90.3893
6597.62 16.2991 86.9149
6600.46 17.4773 96.8515
6603.29 16.8731 88.6208
6606.12 18.4424 97.5075
6608.96 9.34996 94.3763
6611.79 17.004 95.0467
6614.62 19.1487 93.5945
6617.46 14.0205 94.8152
6620.29 19.0589 93.2505
6623.12 17.2319 101.011
6625.96 12.5933 95.5823
6628.79 18.9913 100.127
6631.62 17.0032 87.4156
6634.45 16.3905 92.1996
6637.29 17.3378 94.1535
6640.12 12.334 88.1039
6642.95 17.6052 94.3063
6645.78 16.9754 89.1981
6648.61 18.1891 90.7937
6651.44 13.8428 93.9435
6654.27 12.7298 93.3437
6657.11 12.546 89.3498
6659.94 18.9046 94.9656
6662.77 16.3402 91.0708
6665.6 14.7509 90.935
6668.43 17.6366 90.8942
6671.26 17.8542 89.8689
6674.09 17.5146 93.0191
6676.92 15.6894 94.4711
6679.75 14.4875 90.1373
6682.58 16.4915 91.664
6685.41 17.4716 93.4993
6688.24 15.9506 94.9261
6691.07 16.9747 94.1288
6693.9 16.8913 97.1291
6696.72 15.8227 89.325
6699.55 11.0782 95.6452
6702.38 17.2974 86.2916
6705.21 15.8585 92.4144
6708.04 17.4982 87.1248
6710.87 18.3206 92.3604
6713.69 12.8476 93.6432
6716.52 15.0549 95.311
6719.35 12.6654 85.5622
6722.18 14.3103 87.0215
6725 14.6438 89.4717
6727.83 15.3817 94.1875
6730.66 16.5072 91.2552
6733.48 16.3454 93.3963
6736.31 16.5135 96.8998
6739.14 16.438 94.8275
6741.96 16.8071 90.703
6744.79 15.2059 82.8985
6747.62 16.6919 90.0267
6750.44 16.2125 85.6258
6753.27 14.2466 85.1679
6756.09 15.5969 92.6512
6758.92 14.6769 89.3467
6761.74 16.9545 94.8389
6764.57 12.8705 87.0964
6767.39 12.3454 92.1961
6770.22 15.2298 93.908
6773.04 14.0183 90.406
6775.87 10.3461 90.5998
6778.69 11.1394 92.3564
6781.52 12.3203 95.3688
6784.34 13.3037 86.9441
6787.16 12.9004 92.9634
6789.99 13.0844 95.1427
6792.81 12.2874 94.0066
6795.63 12.1673 103.038
6798.46 12.2791 104.091
6801.28 10.4668 109.273
6804.1 9.29536 107.756
6806.93 3.77754 107.48
6809.75 13.1527 135.827
6812.57 -6.81366 201.112
6815.39 -18.1158 270.683
6818.22 -32.6383 306.317
6821.04 -34.7336 274.35
6823.86 -19.6938 197.426
6826.68 -6.3321 161.152
6829.5 2.285 123.907
6832.32 9.04771 133.853
6835.14 5.73468 137.841
6837.96 -12.2869 150.51
6840.79 -4.43075 154.493
6843.61 0.9501 136.435
6846.43 5.00798 118.804
6849.25 1.81367 108.632
6852.07 7.61606 99.9897
6854.89 10.1259 93.6028
6857.71 12.1653 89.7108
6860.53 9.11501 84.8525
6863.34 -1.84762 83.5858
6866.16 5.52943 76.1386
6868.98 7.76814 68.3078
6871.8 2.84633 68.9107
6874.62 7.3615 74.0982
6877.44 9.56553 81.7497
6880.26 11.9833 77.3914
6883.08 7.83256 76.1672
6885.89 3.99661 79.0218
6888.71 8.92366 85.1394
6891.53 7.17961 82.7239
6894.35 6.05165 80.2154
6897.16 1.92702 82.212
6899.98 -2.93824 72.874
6902.8 -1.08984 77.2755
6905.62 0.989255 83.583
6908.43 2.55675 85.2115
6911.25 9.55184 81.3917
6914.07 8.45469 84.6137
6916.88 10.8896 93.6298
6919.7 -3.79385 81.3543
6922.51 9.34983 84.4589
6925.33 -1.72868 86.9799
6928.14 6.77136 86.2698
6930.96 5.75894 87.6087
6933.78 6.72051 88.4971
6936.59 5.99489 91.4406
6939.4 4.78669 89.008
6942.22 5.36731 87.1492
6945.03 5.59965 84.207
6947.85 4.64021 84.9325
6950.66 8.0216 82.9697
6953.48 -1.51865 87.2088
6956.29 -1.71362 83.871
6959.1 -0.397817 86.0204
6961.92 4.74369 89.9321
6964.73 5.45569 79.7605
6967.54 3.54486 90.311
6970.36 5.5879 94.2502
6973.17 2.83901 115.407
6975.98 -1.1616 130.314
6978.8 -3.68008 129.314
6981.61 -2.11872 120.506
6984.42 1.89278 110.343
6987.23 -7.66783 112.946
6990.04 -9.14051 116.502
6992.85 -3.22755 121.47
6995.67 -3.24915 116.147
6998.48 1.66264 96.9836
7001.29 0.0126835 94.143
7004.1 1.37338 87.4211
7006.91 1.92925 82.2406
7009.72 6.48252 88.6402
7012.53 2.40728 81.771
7015.34 4.05602 86.2168
7018.15 4.30679 80.8995
7020.96 5.13984 88.5651
7023.77 4.28365 88.1944
7026.58 3.2519 80.8574
7029.39 1.55285 80.6015
7032.2 3.02262 86.3495
7035.01 1.74564 83.1806
7037.82 5.28376 80.3781
7040.63 -3.99336 82.0088
7043.43 2.53419 77.1806
7046.24 3.21042 78.8974
7049.05 -1.94719 82.451
7051.86 -1.82186 95.7444
7054.67 -1.21326 78.8535
7057.47 3.72756 76.0613
7060.28 2.45381 79.7913
7063.09 -2.27284 80.1457
7065.9 -1.60107 80.7416
7068.7 3.48192 77.4748
7071.51 3.61926 81.0229
7074.32 1.81368 82.8717
7077.12 3.09083 75.4013
7079.93 -0.0788818 84.2188
7082.73 2.99261 80.5633
7085.54 -2.99189 77.2304
7088.35 -3.73883 80.9227
7091.15 2.79202 93.2274
7093.96 2.20535 79.6761
7096.76 5.47619 85.9686
7099.57 2.79864 85.6273
7102.37 3.65556 90.2077
7105.18 3.16007 83.5771
7107.98 2.03513 84.4709
7110.78 -3.32827 78.3679
7113.59 -2.00997 82.6184
7116.39 3.12512 81.9973
7119.2 3.69549 82.0391
7122 3.21558 89.6779
7124.8 2.56431 80.0638
7127.61 1.72467 76.8409
7130.41 2.62846 75.331
7133.21 1.42641 81.2831
7136.02 -0.686461 80.6601
7138.82 -3.62519 83.4141
7141.62 -4.49137 87.7985
7144.42 2.06259 85.0013
7147.22 0.856801 77.3578
7150.03 -0.90851 76.8317
7152.83 -2.52635 81.7471
7155.63 1.74304 81.5987
7158.43 3.28356 84.4587
7161.23 4.19778 74.9341
7164.03 2.04042 85.9219
7166.83 1.20826 78.507
7169.63 -0.841127 76.7111
7172.43 -5.44688 76.7143
7175.23 -0.381016 75.8501
7178.03 3.69234 84.6489
7180.83 -0.38713 76.3308
7183.63 0.62661 75.0219
7186.43 -3.44287 83.6279
7189.23 1.34942 70.7744
7192.03 -0.45827 76.5779
7194.83 1.52089 73.826
7197.63 1.61644 75.8746
7200.43 -0.405966 77.4181
7203.22 -0.13152 76.4088
7206.02 1.91677 77.1412
7208.82 -2.38515 75.1779
7211.62 6.89459 76.2716
7214.41 6.80362 74.9209
7217.21 7.85936 80.567
7220.01 6.81024 69.9481
7222.81 7.19532 76.7679
7225.6 5.32921 77.1546
7228.4 7.01041 78.5126
7231.2 7.36069 80.6162
7233.99 9.54214 75.6096
7236.79 11.0722 79.8446
7239.58 7.04231 86.8812
7242.38 4.08793 85.6492
7245.18 -1.12718 73.0465
7247.97 3.02567 80.0029
7250.77 5.98787 72.8047
7253.56 8.40083 74.7114
7256.36 5.32033 78.5225
7259.15 5.69874 75.9475
7261.94 8.26814 74.7274
7264.74 5.77163 73.8558
7267.53 5.81959 69.4759
7270.33 8.46498 74.1873
7273.12 7.89604 73.9164
7275.91 7.40179 78.7918
7278.71 2.89404 81.8682
7281.5 5.15339 83.5979
7284.29 4.35101 68.2292
7287.08 5.14798 80.2803
7289.88 7.16628 80.2348
7292.67 6.87944 73.7627
7295.46 9.25941 76.9088
7298.25 5.91139 73.1008
7301.05 4.03349 74.0658
7303.84 4.75726 76.5375
7306.63 6.87895 74.4676
7309.42 8.46966 78.2306
7312.21 5.8148 71.7422
7315 5.98738 84.2189
7317.79 3.82323 78.1844
7320.58 7.68855 86.1549
7323.37 4.4077 80.9618
7326.16 5.88818 78.1884
7328.95 1.97831 79.0235
7331.74 4.38264 76.351
7334.53 5.21086 70.3123
7337.32 6.6815 88.8769
7340.11 6.18202 77.9038
7342.9 6.19659 88.1129
7345.69 7.09108 81.2938
7348.48 4.51157 85.9471
7351.26 6.07431 67.643
7354.05 5.93877 79.6953
7356.84 3.77376 73.0006
7359.63 1.68537 70.3806
7362.41 4.57475 82.0045
7365.2 1.80886 73.5556
7367.99 4.76511 87.0199
7370.78 5.53385 84.5488
7373.56 4.31342 67.2422
7376.35 2.11274 73.6326
7379.14 4.80952 75.9766
7381.92 6.58208 65.4494
7384.71 5.80355 71.5547
7387.49 5.49737 79.8334
7390.28 5.69853 71.7037
7393.06 4.47563 75.9924
7395.85 8.87544 79.3744
7398.63 2.98431 72.0347
7401.42 4.2003 71.1597
7404.2 3.21391 70.6212
7406.99 3.1292 86.2292
7409.77 6.09221 73.7852
7412.56 3.87616 75.9096
7415.34 6.26539 77.8384
7418.12 3.64394 79.5389
7420.91 5.82912 68.9738
7423.69 4.17126 76.669
7426.47 4.26184 74.7138
7429.26 6.18252 75.4856
7432.04 4.37453 62.404
7434.82 3.09509 70.9626
7437.6 4.99212 78.697
7440.39 4.98882 66.5271
7443.17 6.2064 77.7378
7445.95 2.39344 71.9099
7448.73 5.42449 69.7666
7451.51 5.41163 70.7364
7454.29 4.12445 77.5054
7457.07 1.9762 75.4592
7459.86 5.02765 75.7045
7462.64 4.77808 78.0699
7465.42 7.96337 74.0781
7468.2 3.17836 73.9691
7470.98 4.01804 72.2102
7473.76 3.53075 79.6535
7476.53 5.19014 72.4919
7479.31 4.60002 72.224
7482.09 6.13116 73.5916
7484.87 7.92207 72.2431
7487.65 2.80635 71.207
7490.43 2.75783 72.8554
7493.21 4.99088 81.0183
7495.99 1.98327 73.628
7498.76 2.22816 73.2311
7501.54 4.9493 76.9813
7504.32 6.07166 75.2706
7507.1 6.62703 70.8309
7509.87 2.34674 69.3273
7512.65 5.12319 78.0432
7515.43 5.33265 64.4149
7518.2 4.77341 72.6242
7520.98 1.85532 67.1675
7523.76 2.27008 80.612
7526.53 1.68095 70.2006
7529.31 3.73901 76.3203
7532.08 0.558372 80.0779
7534.86 2.49525 70.3403
7537.63 5.49962 74.6233
7540.41 5.33192 67.6073
7543.18 2.22139 69.7701
7545.96 3.88161 65.0869
7548.73 2.10025 69.5327
7551.5 4.31816 74.5752
7554.28 6.04872 67.6358
7557.05 2.20115 73.7427
7559.83 3.22345 70.1186
7562.6 2.77109 71.9106
7565.37 3.82001 75.6572
7568.14 0.57297 70.3589
7570.92 1.55384 66.7851
7573.69 2.21029 63.9167
7576.46 1.94546 74.5259
7579.23 1.17322 65.6662
7582.01 4.10998 72.4584
7584.78 3.30968 70.3728
7587.55 1.95017 70.9082
7590.32 3.10448 59.2308
7593.09 0.947165 47.0391
7595.86 0.185048 36.434
7598.63 3.50882 36.8183
7601.4 2.30616 23.6504
7604.17 4.14644 24.4006
7606.94 0.0437068 22.9222
7609.71 2.38101 40.3569
7612.48 4.00511 38.039
7615.25 1.89582 43.9516
7618.02 0.962089 43.0857
7620.79 0.91365 45.7017
7623.56 4.3094 37.6584
7626.33 0.380403 43.0751
7629.09 1.39046 37.2274
7631.86 1.67065 43.3034
7634.63 1.53516 33.6457
7637.4 0.319316 41.0098
7640.17 0.0496328 46.6942
7642.93 2.71738 48.3457
7645.7 0.863778 47.7557
7648.47 1.1878 45.3822
7651.23 2.63435 60.6517
7654 3.72625 56.447
7656.77 0.438495 49.1214
7659.53 1.12452 70.1225
7662.3 2.27988 57.1897
7665.06 2.08377 63.7713
7667.83 0.752878 64.7147
7670.59 -1.12251 67.7248
7673.36 -0.786124 62.4332
7676.12 -1.76057 63.906
7678.89 0.92939 64.2979
7681.65 1.66337 78.7281
7684.42 0.953698 70.2961
7687.18 0.473284 66.4187
7689.94 1.38574 71.3177
7692.71 0.272571 78.3975
7695.47 2.72685 70.1356
7698.23 -2.68038 60.8548
7701 -1.53588 68.3931
7703.76 -1.12742 65.0667
7706.52 -2.99357 66.24
7709.28 -0.927221 73.0023
7712.04 -2.70906 63.0846
7714.81 -1.7208 76.6842
7717.57 -1.43473 80.1124
7720.33 -4.13537 78.293
7723.09 2.44712 73.9795
7725.85 -1.34533 81.1993
7728.61 -0.463673 83.3089
7731.37 -1.15412 67.4495
7734.13 0.289188 74.5832
7736.89 -1.90874 73.6398
7739.65 -1.798 84.2901
7742.41 -1.43158 74.491
7745.17 -2.47408 67.0503
7747.93 0.915086 80.5926
7750.69 -3.68612 77.3179
7753.45 -1.34539 70.5821
7756.21 -2.3055 72.095
7758.97 -8.37289 74.1366
7761.72 0.0969522 78.3938
7764.48 -3.54507 70.29
7767.24 -3.99487 78.2054
7770 0.044059 77.0942
7772.75 -2.05081 76.2621
7775.51 -6.82164 75.3824
7778.27 -4.9778 63.5608
7781.02 -0.631598 84.1789
7783.78 -4.80606 68.1351
7786.54 0.146426 68.968
7789.29 -4.42331 63.1295
7792.05 -5.29435 62.6036
7794.8 0.0806354 82.8729
7797.56 -1.26959 79.5252
7800.31 -4.23402 73.949
7803.07 -4.63466 68.3062
7805.82 -3.89212 74.0814
7808.58 0.648305 70.9603
7811.33 -3.87219 75.9104
7814.09 -4.15469 80.0195
7816.84 -0.635268 58.6298
7819.59 1.65759 76.4247
7822.35 -0.936848 67.688
7825.1 -5.37726 81.9435
7827.85 -4.67291 68.3973
7830.61 -0.669367 67.5013
7833.36 -3.43918 79.2405
7836.11 1.05257 69.5773
7838.86 -1.04488 70.7863
7841.61 -0.383772 78.7269
7844.37 -3.46375 66.1565
7847.12 3.01671 67.125
7849.87 -7.07216 67.0418
7852.62 0.729169 72.979
7855.37 -0.716006 82.1554
7858.12 -1.80867 66.8724
7860.87 -0.308565 84.1651
7863.62 -3.16557 60.2662
7866.37 -4.32378 68.9646
7869.12 -1.79072 64.9327
7871.87 -4.55329 76.942
7874.62 2.05895 75.7971
7877.37 -2.96822 66.1253
7880.12 -3.30668 68.0621
7882.86 3.11244 70.7079
7885.61 -2.01193 68.4698
7888.36 0.845855 69.0444
7891.11 0.510746 80.853
7893.86 -4.82268 73.161
7896.6 -2.19333 65.3941
7899.35 -4.68558 76.1876
7902.1 -5.29457 68.7863
7904.84 -5.65828 70.703
7907.59 -5.71287 58.9113
7910.34 0.580894 61.0382
7913.08 -0.887468 66.1055
7915.83 -0.0218238 76.7574
7918.57 5.47048 65.9636
7921.32 -2.72253 69.5127
7924.06 -2.03937 77.7366
7926.81 -3.89463 74.808
7929.55 0.454489 68.1583
7932.3 -0.57594 76.4514
7935.04 -2.2743 62.5653
7937.79 -2.08314 65.0775
7940.53 -1.14601 60.5137
7943.27 -8.67628 57.4219
7946.02 -2.22758 54.7099
7948.76 -0.508045 59.9965
7951.5 1.48509 76.958
7954.25 -2.14822 71.102
7956.99 -1.28302 57.604
7959.73 -3.38679 59.5182
7962.47 1.82133 66.6632
7965.21 1.14917 77.6042
7967.95 -5.59469 74.7783
7970.7 -3.58247 50.8383
7973.44 -0.181815 69.5985
7976.18 0.543231 63.0955
7978.92 0.527067 66.7027
7981.66 0.605898 84.4545
7984.4 -4.58737 67.0685
7987.14 0.417952 70.9563
7989.88 0.319939 57.562
7992.62 -3.491 73.1924
7995.36 -0.357032 66.6746
7998.1 -7.30315 54.992
8000.83 -3.97059 76.6066
8003.57 -0.599955 71.8236
8006.31 -3.62575 53.0968
8009.05 -1.82625 68.4049
8011.79 -2.81872 65.9806
8014.52 -4.0145 50.4869
8017.26 -4.5811 66.9182
8020 -0.960753 67.5343
8022.74 -1.56287 71.0499
8025.47 3.63267 52.5273
8028.21 1.2787 76.2725
8030.95 -2.18223 65.6518
8033.68 -1.4837 71.7172
8036.42 -2.68953 62.8084
8039.15 -0.974076 70.7138
8041.89 -4.00246 57.8114
8044.62 -3.70521 66.8784
8047.36 -1.03684 57.3438
8050.09 2.10707 63.2185
8052.83 -3.01492 61.0139
8055.56 -3.36553 67.7253
8058.29 -6.16899 53.4074
8061.03 -2.77062 60.1972
8063.76 -0.0369779 72.5101
8066.49 -3.18318 63.1252
8069.23 -2.93761 64.1875
8071.96 -1.64742 61.5864
8074.69 -2.00092 65.748
8077.43 -3.95789 59.0518
8080.16 -0.891714 60.6447
8082.89 -4.64923 69.5571
8085.62 -0.252646 70.2843
8088.35 -6.18853 72.1719
8091.08 -3.59021 57.3514
8093.81 -1.0912 63.9216
8096.54 0.717683 68.7857
8099.27 -2.89997 55.2345
8102 -2.41009 72.5037
8104.73 -0.748588 60.8557
8107.46 -4.43571 62.8406
8110.19 0.61303 73.3629
8112.92 -3.48367 63.4093
8115.65 -1.84247 58.3317
8118.38 -3.94986 64.284
8121.11 -1.14139 53.8423
8123.84 -3.94704 61.72
8126.57 4.47587 63.7923
8129.29 5.20617 63.7927
8132.02 6.67957 65.6986
8134.75 1.23796 65.1643
8137.47 7.01499 56.2884
8140.2 2.84888 57.9252
8142.93 5.51863 65.6725
8145.65 4.35848 54.0226
8148.38 4.67768 62.7339
8151.11 5.01995 69.5282
8153.83 6.39616 57.3806
8156.56 3.97749 58.846
8159.28 5.835 59.6652
8162.01 2.88952 56.9461
8164.73 7.12743 58.1227
8167.46 -0.727484 62.4433
8170.18 4.50967 55.7982
8172.9 4.68231 62.7508
8175.63 2.77562 53.9546
8178.35 3.82528 60.7575
8181.08 7.59872 63.2455
8183.8 2.17223 61.5321
8186.52 4.51659 63.6261
8189.24 3.11044 53.1324
8191.97 5.48656 59.1155
8194.69 4.88507 58.574
8197.41 6.7067 65.2917
8200.13 4.53817 66.2826
8202.85 3.31493 57.6524
8205.57 5.86727 60.0403
8208.29 4.26178 61.2293
8211.01 5.48262 66.2264
8213.73 4.04756 65.1113
8216.45 3.64547 59.2967
8219.17 4.59062 52.6526
8221.89 1.12807 55.4524
8224.61 4.41171 60.4394
8227.33 1.62447 54.5391
8230.05 3.57129 51.6071
8232.77 3.10886 60.3563
8235.49 3.53533 54.8285
8238.21 2.24985 50.0962
8240.92 1.38359 62.536
8243.64 -1.62857 55.7409
8246.36 4.96424 51.5507
8249.08 4.58747 59.1473
8251.79 2.30953 58.8427
8254.51 3.02258 58.9653
8257.23 1.57842 50.1563
8259.94 0.49154 57.1707
8262.66 1.89683 55.438
8265.37 3.41243 57.1859
8268.09 6.22695 56.8421
8270.81 1.64677 56.2498
8273.52 1.12923 50.5443
8276.24 6.74285 59.0015
8278.95 -0.694019 43.2745
8281.66 10.4371 69.0488
8284.38 5.60918 64.4343
8287.09 -4.63265 46.1047
8289.8 -0.01016 55.5845
8292.52 0.759707 46.6954
8295.23 8.62466 53.3049
8297.94 2.16002 57.4339
8300.66 1.05898 75.4615
8303.37 -2.2056 37.5899
8306.08 0.253908 59.1187
8308.79 -1.31925 53.1899
8311.5 4.16172 55.2394
8314.22 2.89272 56.2068
8316.93 1.41809 57.8776
8319.64 5.21357 59.5798
8322.35 -0.607866 59.8414
8325.06 1.4757 54.0516
8327.77 -0.75661 54.583
8330.48 -1.53015 63.578
8333.19 0.623244 52.2174
8335.9 3.8952 61.164
8338.61 0.974509 57.0794
8341.31 10.5482 65.7295
8344.02 12.2782 58.1247
8346.73 1.87978 65.4355
8349.44 -8.40889 41.5428
8352.15 0.666916 70.346
8354.85 0.056289 60.0396
8357.56 0.926727 46.5555
8360.27 0.84184 58.0845
8362.97 1.17735 50.1318
8365.68 1.17356 59.3711
8368.39 -0.344417 54.419
8371.09 0.122762 54.7584
8373.8 0.401877 55.1102
8376.5 -0.153998 59.4601
8379.21 0.751303 47.8127
8381.92 -2.41233 56.149
8384.62 3.22712 55.4131
8387.32 0.590663 47.2106
8390.03 2.18017 52.874
8392.73 -2.42854 56.9304
8395.44 4.58787 59.5644
8398.14 6.14006 39.637
8400.84 6.25513 67.5509
8403.55 -3.42301 65.319
8406.25 0.717559 44.7712
8408.95 1.35498 47.3083
8411.65 3.72782 65.262
8414.36 0.451322 61.4445
8417.06 -3.4726 54.065
8419.76 -1.69595 48.2725
8422.46 -4.19151 60.5705
8425.16 3.857 46.7744
8427.86 1.11375 43.1473
8430.56 -5.66666 36.8723
8433.26 -3.31584 39.404
8435.96 -7.33804 37.6188
8438.66 -2.56405 56.6169
8441.36 -2.15249 56.76
8444.06 -2.46167 41.9286
8446.76 -0.697182 55.7674
8449.46 2.80766 53.9198
8452.16 0.301889 58.384
8454.85 -2.71942 35.7277
8457.55 -0.219536 57.1283
8460.25 -5.5378 41.0423
8462.95 -3.73823 41.5686
8465.64 -4.30526 51.1053
8468.34 -6.85828 38.3587
8471.04 -7.75135 54.088
8473.73 -5.45092 50.0534
8476.43 -0.52257 52.5052
8479.13 -5.5078 50.9054
8481.82 -3.59604 51.4681
8484.52 -3.98132 48.4173
8487.21 -4.7508 43.9488
8489.91 -1.21175 49.7465
8492.6 -3.11934 56.2103
8495.29 -3.51425 56.6456
8497.99 -6.73789 54.085
8500.68 -3.47827 36.3248
8503.38 -3.79052 48.7643
8506.07 -7.37351 40.2915
8508.76 -8.84939 57.2497
8511.45 -0.887565 49.3908
8514.15 -4.96733 41.4048
8516.84 -5.20297 45.6609
8519.53 -3.35537 54.4588
8522.22 -1.61985 54.5612
8524.91 -2.52872 56.1133
8527.61 -2.93978 50.6998
8530.3 -5.08518 42.2248
8532.99 -2.50463 48.4188
8535.68 -4.87739 54.7625
8538.37 -2.91867 47.767
8541.06 0.159068 61.3046
8543.75 -4.47396 40.251
8546.44 -0.644711 53.1734
8549.12 -3.23104 46.3243
8551.81 -5.07526 53.2603
8554.5 -3.45099 55.0041
8557.19 -4.12007 53.7234
8559.88 -4.39549 41.3016
8562.57 -5.00353 52.2906
8565.25 -4.98092 43.9571
8567.94 -7.08041 53.7604
8570.63 -3.80986 40.8328
8573.31 -6.87298 50.5162
8576 -5.07917 40.8088
8578.69 -7.20519 43.5178
8581.37 -4.37562 53.3437
8584.06 -5.13643 40.5548
8586.74 -3.05298 51.6667
8589.43 -2.8455 44.1633
8592.11 -4.55112 48.5293
8594.8 -7.07461 58.8832
8597.48 -3.97452 55.1643
8600.17 -2.95017 45.4041
8602.85 -5.91529 41.9118
8605.53 -4.21486 48.3548
8608.22 -7.90496 38.2025
8610.9 -4.28917 38.6595
8613.58 -7.32333 49.652
8616.26 -7.96054 53.2329
8618.95 -2.92166 44.7614
8621.63 -8.89091 55.6063
8624.31 -5.96691 34.6204
8626.99 0.53621 52.2681
8629.67 -3.78837 45.8295
8632.35 -2.44529 58.3551
8635.03 -13.3481 56.7964
8637.71 -1.02519 51.5576
8640.39 -10.0651 39.887
8643.07 -6.44625 40.6271
8645.75 -0.0457948 45.4211
8648.43 -1.85864 45.9444
8651.11 -3.32224 58.4055
8653.79 -2.01954 29.0705
8656.47 -8.34937 47.4594
8659.15 -2.56382 23.5688
8661.82 -2.28707 51.0136
8664.5 -3.32669 50.8672
8667.18 -9.04273 42.7112
8669.86 -1.39893 37.02
8672.53 -8.83065 22.7467
8675.21 -4.62987 51.7103
8677.89 -5.73698 22.9431
8680.56 -5.28485 55.253
8683.24 -3.49868 45.6152
8685.91 -3.53677 46.5559
8688.59 -5.56122 32.574
8691.26 -3.41422 39.5761
8693.94 -1.21872 45.4112
8696.61 -6.82308 43.8974
8699.29 -2.5743 43.5028
8701.96 -7.76089 48.9059
8704.63 -2.9438 37.1987
8707.31 -3.43561 37.0611
8709.98 -5.44411 49.2028
8712.65 -3.67366 42.6733
8715.32 -2.58826 49.1269
8718 -4.31818 44.7166
8720.67 -5.76416 42.5868
8723.34 -2.3447 41.7515
8726.01 -5.57072 48.2234
8728.68 -4.48616 40.4779
8731.35 -3.19983 39.5274
8734.02 -3.10346 36.5388
8736.69 -3.26469 44.426
8739.36 -7.19445 44.3439
8742.03 -2.63027 42.3732
8744.7 -2.85132 41.5537
8747.37 -0.117403 46.6275
8750.04 -3.06939 46.251
8752.71 -0.342836 52.3681
8755.38 0.072521 52.9362
8758.05 -5.70641 61.2678
8760.71 -2.7809 45.574
8763.38 0.88597 72.8822
8766.05 0.518307 13.2167
8768.72 -7.7048 42.7517
8771.38 -7.35595 41.8797
8774.05 1.99453 58.8463
8776.71 -8.67123 41.2453
8779.38 -0.254838 58.2538
8782.05 -3.05429 38.8708
8784.71 -2.61908 26.4251
8787.38 1.13573 54.0855
8790.04 -1.81479 41.2003
8792.71 -1.19296 30.1224
8795.37 -2.38268 33.6804
8798.03 1.4571 19.0727
8800.7 1.05157 48.2817
8803.36 -4.00534 31.3673
8806.02 -5.13199 39.09
8808.69 2.08046 44.1351
8811.35 -0.132384 36.6307
8814.01 -1.44065 50.0051
8816.67 1.90913 39.0336
8819.33 -3.45087 44.6364
8822 -2.34565 89.9957
8824.66 1.44336 70.8279
8827.32 9.52496 63.0488
8829.98 -1.53696 44.843
8832.64 -8.0037 45.5093
8835.3 -3.89632 24.9328
8837.96 -11.6386 49.7594
8840.62 0.999479 28.4521
8843.28 -9.34277 31.0048
8845.94 -1.83594 53.4698
8848.59 -1.41848 51.2726
8851.25 0.308478 32.4966
8853.91 0.792412 47.6362
8856.57 0.752541 37.3408
8859.23 0.467322 45.5346
8861.88 -1.92563 52.8929
8864.54 -0.239843 75.0272
8867.2 2.3783 56.6066
8869.85 -0.718845 30.5525
8872.51 1.99632 10.3416
8875.16 4.27829 28.4623
8877.82 1.33312 35.1656
8880.48 3.05946 66.1712
8883.13 2.57076 105.338
8885.78 4.40677 82.6702
8888.44 3.56972 55.4408
8891.09 7.42853 5.35064
8893.75 3.64734 21.7967
8896.4 -0.0171829 23.4234
8899.05 -1.53975 69.7264
8901.71 5.5243 80.1146
8904.36 0.0752756 52.1083
8907.01 8.82006 58.9907
8909.66 10.5741 47.2479
8912.32 4.90802 59.9347
8914.97 -5.09838 96.2366
8917.62 5.36953 117.644
8920.27 7.94796 118.02
8922.92 2.73294 71.5584
8925.57 4.62773 -39.4858
8928.22 -1.13483 12.7282
8930.87 -7.68865 32.1942
8933.52 0.225474 45.8196
8936.17 -1.6834 63.3871
8938.82 2.40225 70.7158
8941.47 1.83409 69.5737
8944.11 -0.640079 63.1753
8946.76 3.42112 46.9431
8949.41 -0.925795 23.6934
8952.06 -2.44537 41.0107
8954.7 6.24984 121.363
8957.35 4.03335 80.8848
8960 1.20519 83.2767
8962.64 -4.21792 -13.2921
8965.29 -1.71791 -26.4522
8967.94 5.81022 6.3147
8970.58 2.26137 27.2815
8973.23 5.40679 44.0912
8975.87 2.94746 52.4805
8978.52 4.0956 59.5136
8981.16 6.0645 49.5323
8983.8 2.63197 66.1797
8986.45 9.77333 77.8401
8989.09 7.31923 53.0611
8991.74 5.68908 51.9062
8994.38 7.61877 31.5117
8997.02 2.13386 53.4969
8999.66 3.59528 71.1874
9002.3 6.99978 49.5004
9004.95 5.3059 24.6289
9007.59 3.68596 -11.7621
9010.23 2.73339 7.70173
9012.87 2.19287 32.1819
9015.51 8.45247 47.4581
9018.15 2.11979 50.5397
9020.79 3.89039 50.7686
9023.43 1.6506 52.5054
9026.07 6.61627 55.3483
9028.71 6.7829 53.2576
9031.35 5.79798 59.01
9033.99 7.02881 60.3252
9036.62 9.23252 59.7263
9039.26 6.02362 54.8506
9041.9 11.3166 34.9344
9044.54 5.29391 44.5694
9047.17 3.93628 63.0549
9049.81 5.12262 58.0472
9052.45 7.87849 53.2758
9055.08 5.58028 21.327
9057.72 -0.574686 22.7277
9060.35 5.27598 35.1597
9062.99 5.04827 40.6236
